Trace
Swept SA
A.12.13,N9010A
513 B25 DP2 RTL ,01
Segment,0
Number of Points,1001
Sweep Time,0.001
Start Frequency,0
Stop Frequency,20000000
Average Count,0
Average Type,LogPower(Video)
RBW,180000
RBW Filter,Gaussian
RBW Filter BW,3dB
VBW,180000
Sweep Type,Swept
X Axis Scale,Lin
PreAmp State,Off
PreAmp Band,Low
Trigger Source,Ext1
Trigger Level,0.5
Trigger Slope,Positive
Trigger Delay,0
Phase Noise Optimization,Fast
Swept If Gain,Low
FFT If Gain,Autorange
RF Coupling,AC
FFT Width,411900
Ext Ref,10000000
Input,RF
RF Calibrator,Off
Attenuation,10
Ref Level Offset,0
External Gain,0
Trace Type,Clearwrite
Detector,Normal
Trace Math,Off
Trace Math Oper1,Trace5
Trace Math Oper2,Trace6
Trace Math Offset,0
Trace Name,Trace1
X Axis Units,Hz
Y Axis Units,dBm
DATA
0,27.8394658815573
20000,24.3490657621135
40000,19.7989070656407
60000,16.6305320524696
80000,13.9816582987817
100000,11.4843411808419
120000,8.99109749564649
140000,6.42411121301162
160000,3.73505082710903
180000,0.880024261267717
200000,-2.18615436873684
220000,-5.5205360376025
240000,-9.05903457181469
260000,-12.7987448939055
280000,-16.8260396844976
300000,-21.1146364334647
320000,-25.3744489213832
340000,-29.8004906290503
360000,-35.1162290165125
380000,-40.6086672486335
400000,-45.838735600626
420000,-52.879131688813
440000,-60.2256556684989
460000,-62.6890083195518
480000,-66.9575663984836
500000,-75.4066007492918
520000,-70.5203946063481
540000,-70.6007076749653
560000,-71.473987904548
580000,-77.282806722029
600000,-79.8279491429865
620000,-79.5895680602875
640000,-75.5282339348778
660000,-75.4655120452619
680000,-74.997496993803
700000,-73.3328631976587
720000,-71.7602818943099
740000,-71.0692879314597
760000,-70.3456406270321
780000,-69.261715593834
800000,-68.6082747748276
820000,-68.6765682663711
840000,-68.9602962167289
860000,-69.8503567816042
880000,-71.2920973104628
900000,-73.4882417098268
920000,-76.9981897973342
940000,-79.7159594980695
960000,-77.518238540711
980000,-76.468904391134
1000000,-76.0703119368859
1020000,-76.1245416626695
1040000,-76.0419395727369
1060000,-76.1531915917754
1080000,-76.6112854756959
1100000,-78.6039932331046
1120000,-81.5147301754041
1140000,-82.0145004400856
1160000,-80.4705437456431
1180000,-78.9747460556648
1200000,-77.6630778465946
1220000,-77.6684059806006
1240000,-78.5282912373139
1260000,-82.5815420884311
1280000,-88.6052979286399
1300000,-90.8050631984173
1320000,-88.8764783730188
1340000,-88.420804248274
1360000,-68.6991743772257
1380000,-58.045573874975
1400000,-51.0352484450897
1420000,-47.8746884058324
1440000,-47.7329782291382
1460000,-48.7509425314072
1480000,-53.526059022877
1500000,-62.7795923492746
1520000,-76.1575116625771
1540000,-78.1902635971578
1560000,-66.0269898155871
1580000,-57.6080210894707
1600000,-51.5223184887819
1620000,-48.6936533835829
1640000,-48.5824556166842
1660000,-49.6195894234104
1680000,-54.2574904690779
1700000,-62.6595110580393
1720000,-72.9586178347482
1740000,-80.4107449691154
1760000,-85.5581423284766
1780000,-88.8633590714848
1800000,-83.2749525778959
1820000,-81.2705389910703
1840000,-80.4473924354396
1860000,-79.9980884390176
1880000,-79.4522926574077
1900000,-79.2712428813832
1920000,-79.3373728747818
1940000,-79.674223543719
1960000,-79.9982950092808
1980000,-79.4224589194979
2000000,-78.6653409442112
2020000,-78.5596963598214
2040000,-78.884277528634
2060000,-81.2239536280693
2080000,-84.6589296907313
2100000,-84.2818080619226
2120000,-84.2200101188814
2140000,-84.5441072337534
2160000,-86.5593636700779
2180000,-92.719504047073
2200000,-90.4568035530513
2220000,-90.0760677550293
2240000,-88.2325343034983
2260000,-87.830687284583
2280000,-83.7279455771446
2300000,-79.9681074565234
2320000,-78.0014615651298
2340000,-77.7195775308525
2360000,-77.8969211608685
2380000,-79.2011544014133
2400000,-81.1553977674176
2420000,-82.0702895540495
2440000,-82.2045394821356
2460000,-82.7353643138907
2480000,-83.3217650281655
2500000,-84.205465334958
2520000,-86.3624719234078
2540000,-89.0754975127751
2560000,-90.2828107233652
2580000,-90.3724683118545
2600000,-91.2925520414724
2620000,-94.9258157638289
2640000,-100.655575699724
2660000,-102.262645175308
2680000,-87.8926707827402
2700000,-84.3274012683269
2720000,-84.1103429148427
2740000,-85.3875045011683
2760000,-92.7697228136984
2780000,-93.9949987157921
2800000,-84.7334210025108
2820000,-83.7314314746972
2840000,-83.79907232854
2860000,-85.0173574831762
2880000,-84.2374997122661
2900000,-84.1209563744891
2920000,-83.5362590039248
2940000,-83.8644419416387
2960000,-84.0537362147913
2980000,-84.2935988193531
3000000,-85.7311905493528
3020000,-88.6239089301283
3040000,-90.9701198414575
3060000,-91.6657914959789
3080000,-91.7169763664825
3100000,-91.1694097641142
3120000,-85.3848315176261
3140000,-87.3268741042187
3160000,-85.4599796275294
3180000,-90.561915839557
3200000,-88.6251248421376
3220000,-88.3643257291281
3240000,-84.6669786507242
3260000,-84.0710838717677
3280000,-84.0889679247176
3300000,-83.7799169431823
3320000,-82.9113691259054
3340000,-82.8421451061206
3360000,-83.3161649339157
3380000,-85.4126465535099
3400000,-87.4605120796331
3420000,-87.7507934835124
3440000,-85.8248946392713
3460000,-85.5384599814146
3480000,-82.4152402982059
3500000,-83.7118394052964
3520000,-82.4747819393851
3540000,-94.6675460764901
3560000,-77.0993867282844
3580000,-75.5571789165378
3600000,-58.0891531825927
3620000,-54.7094669662894
3640000,-54.4482981142186
3660000,-55.3170752143941
3680000,-59.846596378308
3700000,-68.3556640762751
3720000,-79.7402436325539
3740000,-89.3346346596951
3760000,-74.0193708730899
3780000,-64.4644992307717
3800000,-57.9667629795477
3820000,-55.0135096859776
3840000,-54.8521673093395
3860000,-55.9005020952067
3880000,-60.7389606376861
3900000,-69.8692623886351
3920000,-80.9892623009275
3940000,-85.0941942969769
3960000,-83.5755408207666
3980000,-83.4259804010773
4000000,-81.4209408231343
4020000,-81.1194771457427
4040000,-81.1418710288175
4060000,-81.8552665172968
4080000,-84.1873191936331
4100000,-89.2015661943507
4120000,-93.2409657446388
4140000,-92.6550087993736
4160000,-88.2798920163487
4180000,-88.5781665330037
4200000,-91.1862786816354
4220000,-91.7873768305902
4240000,-90.2730190951248
4260000,-90.6778456482067
4280000,-93.5571438651555
4300000,-94.3366708777517
4320000,-91.4224329974729
4340000,-91.9599748565752
4360000,-87.2946859795003
4380000,-86.6508380279025
4400000,-81.1033638284738
4420000,-82.6634142330062
4440000,-81.1254992870996
4460000,-90.1052178479901
4480000,-91.3278036493275
4500000,-91.460602395934
4520000,-91.1595057419922
4540000,-91.8499655018405
4560000,-91.4023005799405
4580000,-91.2589479380535
4600000,-91.3310634617326
4620000,-92.7174604138934
4640000,-98.8609095462737
4660000,-99.86688041937
4680000,-92.2534086095593
4700000,-91.0706887373938
4720000,-90.5346085420232
4740000,-90.5458713143978
4760000,-92.021679178336
4780000,-97.7462996132504
4800000,-94.4399211343095
4820000,-95.5900998904302
4840000,-94.3374297180345
4860000,-100.697953285316
4880000,-99.2974532894065
4900000,-103.031616930033
4920000,-93.8125146284139
4940000,-90.3709028076755
4960000,-89.1059203617547
4980000,-89.0010695786825
5000000,-89.2606603207831
5020000,-90.5573222351609
5040000,-91.9401319147469
5060000,-92.7701856268509
5080000,-95.3992812654933
5100000,-96.5492763941822
5120000,-86.2407141320447
5140000,-83.6511921331592
5160000,-83.0201156988697
5180000,-83.0539975500546
5200000,-84.1526441147774
5220000,-87.3573797213575
5240000,-94.5391903454939
5260000,-101.689569859099
5280000,-93.7112900389363
5300000,-88.6504728356486
5320000,-86.8781804107724
5340000,-86.7769000326663
5360000,-86.8075121847627
5380000,-86.1403560500943
5400000,-85.4274028059739
5420000,-85.4107758296068
5440000,-86.2616344766378
5460000,-90.1945882306366
5480000,-92.0004078848486
5500000,-92.0083457697974
5520000,-93.3005630566871
5540000,-93.2208366260557
5560000,-87.1557257586272
5580000,-84.5503085882249
5600000,-83.0723873053767
5620000,-82.7859837554043
5640000,-82.5949000011361
5660000,-81.3885660036948
5680000,-80.5414770377426
5700000,-80.5409783396671
5720000,-81.4471720445439
5740000,-88.0969209627019
5760000,-76.7331580317194
5780000,-75.4925199189382
5800000,-60.4951234871049
5820000,-57.5571658412151
5840000,-57.3968894089282
5860000,-58.4725613073066
5880000,-63.4809091650006
5900000,-74.4366395200808
5920000,-84.2386330557379
5940000,-84.7836436843951
5960000,-75.1361794451218
5980000,-66.8318043687966
6000000,-60.7276182898172
6020000,-57.9067548421837
6040000,-57.759053930731
6060000,-58.8237889307887
6080000,-63.5742666956288
6100000,-72.4207456249368
6120000,-84.4956744973639
6140000,-87.7003656394279
6160000,-87.24404952972
6180000,-87.2658890799547
6200000,-88.1408657041247
6220000,-89.0197199014138
6240000,-87.2488413700966
6260000,-87.0131223797058
6280000,-84.7613501573024
6300000,-84.9044507674521
6320000,-87.5116719989698
6340000,-91.4750566631438
6360000,-93.1375611061932
6380000,-95.186766910592
6400000,-91.8019773224111
6420000,-93.3533102439367
6440000,-91.80807333091
6460000,-95.7176615885715
6480000,-90.7348081577429
6500000,-87.7169754864117
6520000,-86.3741090152027
6540000,-86.356052705101
6560000,-87.0748577210335
6580000,-88.1124272168374
6600000,-86.1174510656922
6620000,-85.8679968656807
6640000,-83.842902487037
6660000,-83.8834364457608
6680000,-84.9926985403597
6700000,-88.0121097583819
6720000,-93.8967612634603
6740000,-97.3106876788397
6760000,-94.7967479847266
6780000,-95.7007218212806
6800000,-90.9120098776722
6820000,-90.3760999791432
6840000,-86.9866463326383
6860000,-87.0791286123877
6880000,-87.4733951798207
6900000,-87.3319453519368
6920000,-85.0686231159012
6940000,-85.0146546051831
6960000,-85.4924250338103
6980000,-88.1076893059701
7000000,-93.6600586291243
7020000,-93.2767264425759
7040000,-88.2459550672577
7060000,-86.6069702936722
7080000,-84.7105676343915
7100000,-84.0396859162488
7120000,-84.1579364339655
7140000,-86.1380001154751
7160000,-84.905222267193
7180000,-84.7437930456764
7200000,-84.2726853374196
7220000,-85.4190662417966
7240000,-86.4804964050875
7260000,-86.3490184486234
7280000,-82.2063960696084
7300000,-80.6703244897055
7320000,-80.5805841698122
7340000,-81.29957708716
7360000,-84.1482293590733
7380000,-86.4219748493432
7400000,-86.5803868529002
7420000,-86.9007888590673
7440000,-88.7668215569337
7460000,-91.9563710156211
7480000,-95.3941436718177
7500000,-94.6287109463713
7520000,-83.9543526118574
7540000,-82.4506739816317
7560000,-82.470415880045
7580000,-84.682534051742
7600000,-91.7328001350436
7620000,-93.0812448391702
7640000,-88.7069634967242
7660000,-87.4030633576661
7680000,-87.1613714238275
7700000,-87.5755496509156
7720000,-90.6903549170745
7740000,-94.0285614043596
7760000,-91.6440429597461
7780000,-91.3003424278825
7800000,-87.9946654936524
7820000,-90.5958995105867
7840000,-88.0558257374569
7860000,-100.709647652884
7880000,-97.9827000045187
7900000,-96.4682161904453
7920000,-92.2256301215559
7940000,-86.2609883851592
7960000,-77.1527606105432
7980000,-68.3149720306521
8000000,-62.0876606549181
8020000,-59.2335507238201
8040000,-59.0709246424781
8060000,-60.0867932656149
8080000,-64.6682305325391
8100000,-72.7512154563378
8120000,-81.9186236587285
8140000,-96.6271102897419
8160000,-80.4421162898516
8180000,-78.9911135266051
8200000,-62.6179440400432
8220000,-59.5415568935008
8240000,-59.357864333718
8260000,-60.3879448672695
8280000,-65.1103311836743
8300000,-73.4636153881833
8320000,-82.5903644574399
8340000,-85.9747947329881
8360000,-84.4713925280391
8380000,-84.4901109024245
8400000,-86.0610007202301
8420000,-90.95836216418
8440000,-102.797429716686
8460000,-106.816758693589
8480000,-96.1125189490558
8500000,-93.0411526364289
8520000,-92.0563390031814
8540000,-93.8596975563428
8560000,-92.1079097242767
8580000,-93.9700363103848
8600000,-87.3709072299062
8620000,-86.2174812188079
8640000,-86.2530061156569
8660000,-88.7552916450988
8680000,-88.1479663076717
8700000,-87.8372159622642
8720000,-86.7660386935553
8740000,-90.4389457573839
8760000,-93.940681871496
8780000,-93.4534969426629
8800000,-89.3523720135472
8820000,-89.1800422601772
8840000,-89.3369520703882
8860000,-90.9349788256492
8880000,-92.2677633646822
8900000,-92.2626251171112
8920000,-93.9468493288872
8940000,-95.5605081300512
8960000,-92.479707725024
8980000,-92.7162360952434
9000000,-97.222571051997
9020000,-96.5601680521885
9040000,-88.0296870405579
9060000,-87.3463571863246
9080000,-87.4247373333933
9100000,-88.1002017914238
9120000,-88.8344504830418
9140000,-90.3565405138147
9160000,-90.0024087757124
9180000,-89.8520889994608
9200000,-87.9562030027075
9220000,-87.9508900876224
9240000,-89.007795228668
9260000,-92.811066352557
9280000,-93.8601120514123
9300000,-93.451033772425
9320000,-87.349290736158
9340000,-85.0809667602309
9360000,-84.4797957254967
9380000,-84.682145648403
9400000,-88.4043419504667
9420000,-99.9802236540728
9440000,-87.9819457828513
9460000,-84.7349559205836
9480000,-83.4072843319787
9500000,-83.3652524975339
9520000,-83.988247435027
9540000,-86.2496517947936
9560000,-90.3153979794829
9580000,-94.946873058497
9600000,-95.0184665522867
9620000,-94.8104487705969
9640000,-93.2422997903818
9660000,-93.4915585147968
9680000,-92.3859123893299
9700000,-92.0419786321035
9720000,-88.8092459973806
9740000,-88.9029909655664
9760000,-91.2492263788497
9780000,-95.3370897656449
9800000,-94.8075838550736
9820000,-94.5864165267761
9840000,-91.1328270504359
9860000,-91.8967852417761
9880000,-91.0340760239149
9900000,-99.9339289116391
9920000,-95.9015044974559
9940000,-96.5060317583699
9960000,-95.6054013494004
9980000,-95.8937272591648
10000000,-90.1196359673278
10020000,-89.4310558661786
10040000,-89.4310221490698
10060000,-89.8987272797586
10080000,-91.4377991678689
10100000,-93.1493288551157
10120000,-89.3680991285488
10140000,-87.8576527079279
10160000,-79.2526120241133
10180000,-69.4481478651215
10200000,-62.6761880339647
10220000,-59.6579502786471
10240000,-59.5036715140884
10260000,-60.6663920944814
10280000,-65.8924881529452
10300000,-76.0090082932618
10320000,-86.1033102852805
10340000,-86.3239785429388
10360000,-78.5550636910642
10380000,-77.3973044674839
10400000,-62.5612269946656
10420000,-59.5977973884676
10440000,-59.4434520007216
10460000,-60.5629901654391
10480000,-65.5629867550663
10500000,-74.7217377740642
10520000,-84.7245162826978
10540000,-88.035120020326
10560000,-86.5924748671463
10580000,-86.4563773810476
10600000,-86.006700896399
10620000,-87.3626757163285
10640000,-91.3304455768541
10660000,-95.0277528425911
10680000,-94.532323054781
10700000,-94.5634285725718
10720000,-95.4058981652084
10740000,-96.0079560664862
10760000,-94.7207314242764
10780000,-94.4944227541545
10800000,-91.4890684844771
10820000,-91.4717971180613
10840000,-92.365188155734
10860000,-94.896992101739
10880000,-98.0389511558195
10900000,-103.74305673004
10920000,-88.2666132497231
10940000,-84.4616094429052
10960000,-84.0771581141037
10980000,-84.87643919853
11000000,-89.4111522998093
11020000,-91.9089427758351
11040000,-88.6134684941104
11060000,-86.4912743399107
11080000,-85.2588381745336
11100000,-85.151339716682
11120000,-85.3913794915122
11140000,-86.186699587386
11160000,-86.7912578200229
11180000,-87.2311852993217
11200000,-88.153226188825
11220000,-92.0947079971283
11240000,-93.754941999888
11260000,-93.2985540084439
11280000,-92.1797384322355
11300000,-97.6694671879835
11320000,-93.7389383169896
11340000,-97.0741504019785
11360000,-93.792969373416
11380000,-103.306865035597
11400000,-93.2250622196409
11420000,-91.7325394811759
11440000,-91.8248619409626
11460000,-95.0960252624592
11480000,-89.448647862327
11500000,-87.2283566051593
11520000,-86.3120015991003
11540000,-85.1865935755997
11560000,-84.1761579054962
11580000,-84.0620137886028
11600000,-84.441742683744
11620000,-86.7904438568696
11640000,-91.869838200133
11660000,-96.9191775667458
11680000,-91.7982979600418
11700000,-88.892022856223
11720000,-88.3597518457893
11740000,-88.5761320313052
11760000,-89.9814720693512
11780000,-90.7178524860634
11800000,-89.5440471999008
11820000,-89.3305549306098
11840000,-87.1820524882885
11860000,-87.45067059891
11880000,-90.4787263829695
11900000,-91.245133621025
11920000,-88.3780108505305
11940000,-87.9593660248659
11960000,-88.0659519784427
11980000,-90.1075402835203
12000000,-95.1777164931114
12020000,-101.064485051748
12040000,-102.409668858806
12060000,-102.853326818534
12080000,-97.548144364851
12100000,-96.4997105042387
12120000,-93.8010955402823
12140000,-90.68699283485
12160000,-90.3323281392799
12180000,-91.870856308313
12200000,-91.4351781230992
12220000,-90.7734625873137
12240000,-83.3856045793076
12260000,-82.0679920161282
12280000,-82.039944573616
12300000,-82.7932128460639
12320000,-85.0398686746902
12340000,-93.0484233380053
12360000,-79.3106931994476
12380000,-77.8963751099238
12400000,-61.4161818281449
12420000,-58.2497684155278
12440000,-58.0544550296208
12460000,-59.1003644625387
12480000,-64.0620123584337
12500000,-73.7651407374984
12520000,-84.8388408214227
12540000,-90.6458193373889
12560000,-77.7952064318962
12580000,-67.8190087111703
12600000,-60.9654714160562
12620000,-57.8094782366895
12640000,-57.5880017741733
12660000,-58.5071436830489
12680000,-62.9801088464491
12700000,-71.2028803525967
12720000,-85.6631366508172
12740000,-92.9085998578333
12760000,-89.0810166270589
12780000,-89.0541954100147
12800000,-89.0051598123848
12820000,-87.6443412535442
12840000,-87.1014224414301
12860000,-87.2300693681809
12880000,-89.7418675261964
12900000,-92.7462335873708
12920000,-93.4053327201078
12940000,-99.9360817753891
12960000,-92.9805797027044
12980000,-90.438613547861
13000000,-90.1739678681537
13020000,-90.7820973474922
13040000,-94.0307692905855
13060000,-95.3888551431042
13080000,-95.5240039118202
13100000,-97.3759616576633
13120000,-93.6567713127141
13140000,-95.171632800084
13160000,-93.5664411526658
13180000,-98.3306966190159
13200000,-95.6083961895054
13220000,-94.2801860427189
13240000,-94.0952078647041
13260000,-94.5360663666597
13280000,-96.5683048201144
13300000,-96.9255387455992
13320000,-92.2786690812471
13340000,-91.7409085809923
13360000,-91.9544139992065
13380000,-93.7762846416766
13400000,-94.1060683607229
13420000,-94.0099130695657
13440000,-93.7844064944535
13460000,-93.5445253836479
13480000,-90.8862107632623
13500000,-91.268244414129
13520000,-96.3682414263139
13540000,-105.85825681025
13560000,-102.003129328943
13580000,-96.1228410995145
13600000,-91.3570409113199
13620000,-88.3537794613264
13640000,-86.4610864176528
13660000,-85.5639850591982
13680000,-85.4429743609508
13700000,-85.5649803863493
13720000,-87.402489278278
13740000,-94.207513452058
13760000,-86.9527099638071
13780000,-85.4088508935351
13800000,-85.3962706547371
13820000,-86.3714428799402
13840000,-89.7937881735264
13860000,-99.1923083554173
13880000,-99.37439587759
13900000,-98.8953650197158
13920000,-93.3024804510534
13940000,-91.724633568318
13960000,-90.1703025312076
13980000,-89.0693435509017
14000000,-88.9626699113079
14020000,-89.4151992093399
14040000,-91.1024197699141
14060000,-90.9029745816273
14080000,-87.0190456301124
14100000,-86.0082264374921
14120000,-85.9551091474487
14140000,-86.2835035462757
14160000,-87.2547204045443
14180000,-88.3774955052516
14200000,-90.2371649606605
14220000,-91.8943166009947
14240000,-89.9244729330976
14260000,-89.7537518896521
14280000,-89.2341790377526
14300000,-90.9292129390841
14320000,-95.6280120979262
14340000,-101.526225729968
14360000,-94.1733688424755
14380000,-91.7828013862205
14400000,-91.7427223296811
14420000,-92.7531106542015
14440000,-87.8670198272131
14460000,-85.5875019743924
14480000,-85.4180666624953
14500000,-86.3343757239242
14520000,-88.239744187414
14540000,-87.6548192992779
14560000,-70.4988707908783
14580000,-61.141740107294
14600000,-54.7321930070176
14620000,-51.8438066167082
14640000,-51.6913421133099
14660000,-52.7722626387444
14680000,-57.6121366933142
14700000,-66.4644357229858
