bitsum (V)_X,bitsum (V)_Y
0,0
2.5e-12,0
3.75e-12,0
5e-12,0
6.86001679499785e-12,0
8.251461839168221e-12,0
9.125730919584111e-12,0
9.999999999999999e-12,0
1.103078176522849e-11,0
1.234233320551514e-11,0
1.368218036220987e-11,0
1.434109018110494e-11,0
1.5e-11,0
1.620214964337235e-11,0
1.72212930312759e-11,0
1.866802049742093e-11,0
2e-11,0
2.136509054326711e-11,0
2.318879528205022e-11,0
2.409439764102511e-11,0
2.5e-11,0
2.501250002083333e-11,0
2.503750006250001e-11,9.765641276042751e-07
2.508750014583335e-11,2.929692382813015e-06
2.518750031250004e-11,6.835948893230495e-06
2.538750064583341e-11,1.464846191406548e-05
2.573722564077493e-11,2.830959452896858e-05
2.619533043504167e-11,4.620431305501295e-05
2.686136458588292e-11,7.222127207224936e-05
2.720450081038702e-11,8.562503084194081e-05
2.745617081706714e-11,9.545589047788314e-05
2.795951083042739e-11,0.0001151176097497678
2.81763849198275e-11,0.0001235892538669595
2.841236766577833e-11,0.0001328073298806639
2.859509473727692e-11,0.0001399451061110774
2.877837240078973e-11,0.0001471043898420467
2.906983709237287e-11,0.0001584897293570132
2.950205164975081e-11,0.0001753731105045887
3e-11,0.0001948242179361978
3.001250002083334e-11,0.0001953125
3.003750006250001e-11,0.0001953125
3.008750014583335e-11,0.0001953125
3.018750031250004e-11,0.0001953125
3.038750064583341e-11,0.0001953125
3.072011015643751e-11,0.0001953125
3.116675980209925e-11,0.0001953125
3.183686483452076e-11,0.0001953125
3.309981067328583e-11,0.0001953125
3.42005119329167e-11,0.0001953125
3.5e-11,0.0001953125
3.640921222779526e-11,0.0001953125
3.780776535903707e-11,0.0001953125
3.890388267951854e-11,0.0001953125
4e-11,0.0001953125
4.123899903676543e-11,0.0001953125
4.241643894261944e-11,0.0001953125
4.364412561574426e-11,0.0001953125
4.432206280787213e-11,0.0001953125
4.500000000000001e-11,0.0001953125
4.635587438425575e-11,0.0001953125
4.744539430612089e-11,0.0001953125
4.893168451879515e-11,0.0001953125
5e-11,0.0001953125
5.141226618324563e-11,0.0001953125
5.353600232683992e-11,0.0001953125
5.500000000000001e-11,0.0001953125
5.74317036903948e-11,0.0001953125
5.87158518451974e-11,0.0001953125
6.000000000000001e-11,0.0001953125
6.201846663521699e-11,0.0001953125
6.343175284523907e-11,0.0001953125
6.421587642261953e-11,0.0001953125
6.500000000000001e-11,0.0001953125
6.652768496567806e-11,0.0001953125
6.791522265185032e-11,0.0001953125
6.895761132592516e-11,0.0001953125
7e-11,0.0001953125
7.161434332043177e-11,0.0001953125
7.342114804914936e-11,0.0001953125
7.5e-11,0.0001953125
7.659283906118729e-11,0.0001953125
7.843237301518825e-11,0.0001953125
8e-11,0.0001953125
8.208403007416066e-11,0.0001953125
8.356251886859809e-11,0.0001953125
8.428125943429903e-11,0.0001953125
8.499999999999999e-11,0.0001953125
8.643748113140191e-11,0.0001953125
8.755147418537391e-11,0.0001953125
8.888423577773394e-11,0.0001953125
8.999999999999999e-11,0.0001953125
9.130024974894597e-11,0.0001953125
9.282291301532062e-11,0.0001953125
9.39114565076603e-11,0.0001953125
9.499999999999998e-11,0.0001953125
9.681930545660973e-11,0.0001953125
9.823956725820571e-11,0.0001953125
9.999999999999998e-11,0.0001953125
1.016463552862909e-10,0.0001953125
1.030766285948737e-10,0.0001953125
1.040383142974369e-10,0.0001953125
1.05e-10,0.0001953125
1.06490451051257e-10,0.0001953125
1.075666749936558e-10,0.0001953125
1.087833374968279e-10,0.0001953125
1.1e-10,0.0001953125
1.11209143515255e-10,0.0001953125
1.123422914024075e-10,0.0001953125
1.135182393964e-10,0.0001953125
1.142591196982e-10,0.0001953125
1.15e-10,0.0001953125
1.161953237662145e-10,0.0001953125
1.176244390778007e-10,0.0001953125
1.188122195389003e-10,0.0001953125
1.2e-10,0.0001953125
1.214993686870963e-10,0.0001953125
1.226299283663152e-10,0.0001953125
1.238347814854669e-10,0.0001953125
1.25e-10,0.0001953125
1.261506860948716e-10,0.0001953125
1.274486284721528e-10,0.0001953125
1.287243142360764e-10,0.0001953125
1.293621571180382e-10,0.0001953125
1.3e-10,0.0001953125
1.312756857639236e-10,0.0001953125
1.323591128081625e-10,0.0001953125
1.338625003062778e-10,0.0001953125
1.35e-10,0.0001953125
1.365159591527085e-10,0.0001953125
1.382185504244091e-10,0.0001953125
1.391092752122046e-10,0.0001953125
1.4e-10,0.0001953125
1.411810840835366e-10,0.0001953125
1.422594161618029e-10,0.0001953125
1.43625621131567e-10,0.0001953125
1.443128105657835e-10,0.0001953125
1.45e-10,0.0001953125
1.46374378868433e-10,0.0001953125
1.477546854224797e-10,0.0001953125
1.488773427112399e-10,0.0001953125
1.5e-10,0.0001953125
1.51474947798746e-10,0.0001953125
1.529224833998745e-10,0.0001953125
1.539612416999372e-10,0.0001953125
1.55e-10,0.0001953125
1.566602293281471e-10,0.0001953125
1.58087129670283e-10,0.0001953125
1.6e-10,0.0001953125
1.614477029473961e-10,0.0001953125
1.627945128700494e-10,0.0001953125
1.638972564350247e-10,0.0001953125
1.650000000000001e-10,0.0001953125
1.663812016382545e-10,0.0001953125
1.680844540899962e-10,0.0001953125
1.690422270449982e-10,0.0001953125
1.700000000000001e-10,0.0001953125
1.715268149167817e-10,0.0001953125
1.729220336124104e-10,0.0001953125
1.739610168062052e-10,0.0001953125
1.750000000000001e-10,0.0001953125
1.767087179359359e-10,0.0001953125
1.783111920518475e-10,0.0001953125
1.800000000000001e-10,0.0001953125
1.814035137373354e-10,0.0001953125
1.82734555576793e-10,0.0001953125
1.838672777883965e-10,0.0001953125
1.850000000000001e-10,0.0001953125
1.863634593866326e-10,0.0001953125
1.881703073061728e-10,0.0001953125
1.890851536530864e-10,0.0001953125
1.900000000000001e-10,0.0001953125
1.913794262038823e-10,0.0001953125
1.927010395245976e-10,0.0001953125
1.938505197622989e-10,0.0001953125
1.950000000000001e-10,0.0001953125
1.967680049307835e-10,0.0001953125
1.983446309648459e-10,0.0001953125
1.99172315482423e-10,0.0001953125
2.000000000000001e-10,0.0001953125
2.011013650974702e-10,0.0001953125
2.02480533953137e-10,0.0001953125
2.038750967949294e-10,0.0001953125
2.050000000000001e-10,0.0001953125
2.06683052414223e-10,0.0001953125
2.081321935063585e-10,0.0001953125
2.090660967531793e-10,0.0001953125
2.100000000000001e-10,0.0001953125
2.112383800285778e-10,0.0001953125
2.129395280792232e-10,0.0001953125
2.139697640396117e-10,0.0001953125
2.150000000000001e-10,0.0001953125
2.167807326275196e-10,0.0001953125
2.183449705128955e-10,0.0001953125
2.191724852564478e-10,0.0001953125
2.200000000000001e-10,0.0001953125
2.211633179368324e-10,0.0001953125
2.225902584634929e-10,0.0001953125
2.238281712606096e-10,0.0001953125
2.250000000000002e-10,0.0001953125
2.266400951084174e-10,0.0001953125
2.28023560779768e-10,0.0001953125
2.300000000000002e-10,0.0001953125
2.314614630346488e-10,0.0001953125
2.331928284401994e-10,0.0001953125
2.340964142200998e-10,0.0001953125
2.350000000000002e-10,0.0001953125
2.366577947403514e-10,0.0001953125
2.383647822355495e-10,0.0001953125
2.391823911177748e-10,0.0001953125
2.400000000000002e-10,0.0001953125
2.412376777484371e-10,0.0001953125
2.426732909231495e-10,0.0001953125
2.439004094025254e-10,0.0001953125
2.450000000000001e-10,0.0001953125
2.467287652786184e-10,0.0001953125
2.481019767988595e-10,0.0001953125
2.5e-10,0.0001953125
2.513894455554634e-10,0.0001953125
2.531249349820213e-10,0.0001953125
2.540624674910107e-10,0.0001953125
2.550000000000001e-10,0.0001953125
2.568750650179788e-10,0.0001953125
2.58327618815861e-10,0.0001953125
2.591638094079306e-10,0.0001953125
2.600000000000001e-10,0.0001953125
2.614982269652556e-10,0.0001953125
2.629101635355309e-10,0.0001953125
2.639550817677655e-10,0.0001953125
2.650000000000001e-10,0.0001953125
2.666434140393022e-10,0.0001953125
2.682780303122522e-10,0.0001953125
2.7e-10,0.0001953125
2.715463878081806e-10,0.0001953125
2.73464688168229e-10,0.0001953125
2.75e-10,0.0001953125
2.772019266076732e-10,0.0001953125
2.787517897110663e-10,0.0001953125
2.8e-10,0.0001953125
2.813748220707965e-10,0.0001953125
2.830866906936863e-10,0.0001953125
2.840433453468431e-10,0.0001953125
2.85e-10,0.0001953125
2.863359163811198e-10,0.0001953125
2.876233073789981e-10,0.0001953125
2.88811653689499e-10,0.0001953125
2.9e-10,0.0001953125
2.913973324490037e-10,0.0001953125
2.930118162956038e-10,0.0001953125
2.940059081478019e-10,0.0001953125
2.95e-10,0.0001953125
2.963642243904408e-10,0.0001953125
2.977941333074188e-10,0.0001953125
2.98977548705571e-10,0.0001953125
2.999999999999999e-10,0.0001953125
3.00708571802108e-10,0.0001953125
3.017202436235307e-10,0.0001953125
3.028361348414582e-10,0.0001953125
3.039180674207291e-10,0.0001953125
3.049999999999999e-10,0.0001953125
3.064447981947716e-10,0.0001953125
3.08358425610402e-10,0.0001953125
3.09179212805201e-10,0.0001953125
3.099999999999999e-10,0.0001953125
3.116415743895978e-10,0.0001953125
3.133534148128443e-10,0.0001953125
3.149999999999999e-10,0.0001953125
3.168965282027859e-10,0.0001953125
3.182919906960922e-10,0.0001953125
3.19145995348046e-10,0.0001953125
3.199999999999999e-10,0.0001953125
3.212503138014979e-10,0.0001953125
3.223755891109241e-10,0.0001953125
3.23687794555462e-10,0.0001953125
3.249999999999999e-10,0.0001953125
3.263771859827868e-10,0.0001953125
3.281746904994635e-10,0.0001953125
3.290873452497317e-10,0.0001953125
3.299999999999998e-10,0.0001953125
3.315867732164169e-10,0.0001953125
3.331902741390782e-10,0.0001953125
3.340951370695391e-10,0.0001953125
3.349999999999998e-10,0.0001953125
3.363887974526011e-10,0.0001953125
3.374704005588992e-10,0.0001953125
3.387039142640334e-10,0.0001953125
3.399999999999998e-10,0.0001953125
3.411966617822677e-10,0.0001953125
3.42535893180469e-10,0.0001953125
3.437679465902344e-10,0.0001953125
3.449999999999998e-10,0.0001953125
3.462260289033597e-10,0.0001953125
3.475262904314856e-10,0.0001953125
3.488631926674358e-10,0.0001953125
3.499999999999998e-10,0.0001953125
3.515198336068128e-10,0.0001953125
3.53238752652778e-10,0.0001953125
3.541193763263889e-10,0.0001953125
3.549999999999998e-10,0.0001953125
3.562206939842598e-10,0.0001953125
3.572985336010582e-10,0.0001953125
3.587573630114927e-10,0.0001953125
3.599999999999997e-10,0.0001953125
3.612897695760394e-10,0.0001953125
3.629271258912754e-10,0.0001953125
3.639635629456376e-10,0.0001953125
3.649999999999997e-10,0.0001953125
3.66597383716253e-10,0.0001953125
3.678960265496797e-10,0.0001953125
3.689480132748397e-10,0.0001953125
3.699999999999997e-10,0.0001953125
3.717202953362687e-10,0.0001953125
3.732437282579533e-10,0.0001953125
3.749999999999997e-10,0.0001953125
3.764309246477762e-10,0.0001953125
3.777037550321494e-10,0.0001953125
3.788518775160745e-10,0.0001953125
3.799999999999997e-10,0.0001953125
3.812673240955667e-10,0.0001953125
3.829899342097651e-10,0.0001953125
3.839949671048824e-10,0.0001953125
3.849999999999997e-10,0.0001953125
3.864655926799707e-10,0.0001953125
3.877467933620798e-10,0.0001953125
3.888733966810397e-10,0.0001953125
3.899999999999996e-10,0.0001953125
3.917253390778938e-10,0.0001953125
3.932343158619675e-10,0.0001953125
3.949999999999996e-10,0.0001953125
3.963669209951828e-10,0.0001953125
3.976518525323877e-10,0.0001953125
3.988259262661936e-10,0.0001953125
3.999999999999996e-10,0.0001953125
4.013366697591e-10,0.0001953125
4.029421770613025e-10,0.0001953125
4.039710885306511e-10,0.0001953125
4.049999999999996e-10,0.0001953125
4.062656281791002e-10,0.0001953125
4.075649344828083e-10,0.0001953125
4.087824672414039e-10,0.0001953125
4.099999999999996e-10,0.0001953125
4.118127788350503e-10,0.0001953125
4.132562229081134e-10,0.0001953125
4.141281114540565e-10,0.0001953125
4.149999999999995e-10,0.0001953125
4.160689306195238e-10,0.0001953125
4.174940101708339e-10,0.0001953125
4.187409573370336e-10,0.0001953125
4.199999999999995e-10,0.0001953125
4.216557301001522e-10,0.0001953125
4.230084736064058e-10,0.0001953125
4.240042368032027e-10,0.0001953125
4.249999999999995e-10,0.0001953125
4.262207595176839e-10,0.0001953125
4.282090171991848e-10,0.0001953125
4.291045085995921e-10,0.0001953125
4.299999999999995e-10,0.0001953125
4.314878653461575e-10,0.0001953125
4.329657195284625e-10,0.0001953125
4.33982859764231e-10,0.0001953125
4.349999999999995e-10,0.0001953125
4.362381351861801e-10,0.0001953125
4.376980798860409e-10,0.0001953125
4.3893334610829e-10,0.0001953125
4.399999999999995e-10,0.0001953125
4.416310872553155e-10,0.0001953125
4.430396927453446e-10,0.0001953125
4.449999999999994e-10,0.0001953125
4.464315307985983e-10,0.0001953125
4.484523866066244e-10,0.0001953125
4.499999999999994e-10,0.0001953125
4.519999215336663e-10,0.0001953125
4.534999607668329e-10,0.0001953125
4.542499803834162e-10,0.0001953125
4.549999999999994e-10,0.0001953125
4.562451093577126e-10,0.0001953125
4.575137050569583e-10,0.0001953125
4.586844384152974e-10,0.0001953125
4.599999999999994e-10,0.0001953125
4.615223529396568e-10,0.0001953125
4.628547654024737e-10,0.0001953125
4.640968867709485e-10,0.0001953125
4.649999999999994e-10,0.0001953125
4.663897707211226e-10,0.0001953125
4.680510292883148e-10,0.0001953125
4.690255146441571e-10,0.0001953125
4.699999999999994e-10,0.0001953125
4.713034577784995e-10,0.0001953125
4.728391402981231e-10,0.0001953125
4.74058820561329e-10,0.0001953125
4.749999999999994e-10,0.0001953125
4.76542570052864e-10,0.0001953125
4.777359008591334e-10,0.0001953125
4.788679504295665e-10,0.0001953125
4.799999999999994e-10,0.0001953125
4.812659104298575e-10,0.0001953125
4.82959293852876e-10,0.0001953125
4.839796469264377e-10,0.0001953125
4.849999999999994e-10,0.0001953125
4.869756577402251e-10,0.0001953125
4.884621687192591e-10,0.0001953125
4.899999999999993e-10,0.0001953125
4.915414187632061e-10,0.0001953125
4.930139221200036e-10,0.0001953125
4.940069610600015e-10,0.0001953125
4.949999999999993e-10,0.0001953125
4.965412085673858e-10,0.0001953125
4.976684286716475e-10,0.0001953125
4.988342143358235e-10,0.0001953125
4.999999999999993e-10,0.0001953125
5.012593369676526e-10,0.0001953125
5.032945313472816e-10,0.0001953125
5.041472656736405e-10,0.0001953125
5.049999999999993e-10,0.0001953125
5.066260953961256e-10,0.0001953125
5.084179935157147e-10,0.0001953125
5.099999999999993e-10,0.0001953125
5.119715043182321e-10,0.0001953125
5.133874294306412e-10,0.0001953125
5.141937147153202e-10,0.0001953125
5.149999999999993e-10,0.0001953125
5.166018772895529e-10,0.0001953125
5.177820253799654e-10,0.0001953125
5.188910126899823e-10,0.0001953125
5.199999999999992e-10,0.0001953125
5.213115493399495e-10,0.0001953125
5.231620246803914e-10,0.0001953125
5.240810123401953e-10,0.0001953125
5.249999999999992e-10,0.0001953125
5.250125000208334e-10,0.0001953125
5.250375000625017e-10,0.0002153320646172068
5.250875001458383e-10,0.0002553711938515947
5.251875003125115e-10,0.0003354494523203696
5.253875006458579e-10,0.0004956059692579192
5.256683370642071e-10,0.0007204945073891518
5.260967193002703e-10,0.001063534969861602
5.268763620257748e-10,0.001687858246144512
5.272094551484698e-10,0.001954592973302585
5.274415627579278e-10,0.002140460394938921
5.275954385211716e-10,0.002263681220974019
5.277105159543935e-10,0.002355833071796206
5.277864976718093e-10,0.002416677806445578
5.278579288760274e-10,0.002473878575448319
5.279325796471627e-10,0.002533657513271521
5.280603841793909e-10,0.002636000986344924
5.282238533129387e-10,0.002766904003443769
5.284822188401499e-10,0.002973798273280803
5.288703859474355e-10,0.003284635214661894
5.293418306656377e-10,0.003662159305409695
5.296709153328184e-10,0.003925684136550549
5.299999999999992e-10,0.004189208967691403
5.300125000208334e-10,0.00419921875
5.300375000625017e-10,0.00419921875
5.300875001458383e-10,0.00419921875
5.301875003125115e-10,0.00419921875
5.303875006458579e-10,0.00419921875
5.306585742910458e-10,0.00419921875
5.310881505859854e-10,0.00419921875
5.318727360413575e-10,0.00419921875
5.328386460556419e-10,0.00419921875
5.339193230278205e-10,0.00419921875
5.349999999999992e-10,0.00419921875
5.363211074272005e-10,0.00419921875
5.379887522468343e-10,0.00419921875
5.389943761234167e-10,0.00419921875
5.399999999999992e-10,0.00419921875
5.420112477531641e-10,0.00419921875
5.435123050709902e-10,0.00419921875
5.449999999999992e-10,0.00419921875
5.468057395222221e-10,0.00419921875
5.486059578617648e-10,0.00419921875
5.499999999999991e-10,0.00419921875
5.508802262085474e-10,0.00419921875
5.520770618846796e-10,0.00419921875
5.533093437858178e-10,0.00419921875
5.541546718929084e-10,0.00419921875
5.549999999999991e-10,0.00419921875
5.563599770457252e-10,0.00419921875
5.579061243669655e-10,0.00419921875
5.589530621834823e-10,0.00419921875
5.599999999999991e-10,0.00419921875
5.620938756330327e-10,0.00419921875
5.635980465050792e-10,0.00419921875
5.649999999999991e-10,0.00419921875
5.667350613460569e-10,0.00419921875
5.686009368223963e-10,0.00419921875
5.699999999999991e-10,0.00419921875
5.71526457993366e-10,0.00419921875
5.72852823873683e-10,0.00419921875
5.73926411936841e-10,0.00419921875
5.74999999999999e-10,0.00419921875
5.762423935115748e-10,0.00419921875
5.776999415787466e-10,0.00419921875
5.788499707893729e-10,0.00419921875
5.79999999999999e-10,0.00419921875
5.812121662895733e-10,0.00419921875
5.825148341174415e-10,0.00419921875
5.83882955329758e-10,0.00419921875
5.84999999999999e-10,0.00419921875
5.866107475216639e-10,0.00419921875
5.885926586322349e-10,0.00419921875
5.89999999999999e-10,0.00419921875
5.914550533488844e-10,0.00419921875
5.926904031031307e-10,0.00419921875
5.938452015515649e-10,0.00419921875
5.94999999999999e-10,0.00419921875
5.961783634618342e-10,0.00419921875
5.979238457709697e-10,0.00419921875
5.989619228854844e-10,0.00419921875
5.99999999999999e-10,0.00419921875
6.015207020069458e-10,0.00419921875
6.027080082061017e-10,0.00419921875
6.038540041030503e-10,0.00419921875
6.049999999999989e-10,0.00419921875
6.066301232230588e-10,0.00419921875
6.081732139974434e-10,0.00419921875
6.090866069987212e-10,0.00419921875
6.099999999999989e-10,0.00419921875
6.11078687920666e-10,0.00419921875
6.123460728791671e-10,0.00419921875
6.138971644691339e-10,0.00419921875
6.149999999999989e-10,0.00419921875
6.165399581176333e-10,0.00419921875
6.179938541584258e-10,0.00419921875
6.189969270792123e-10,0.00419921875
6.199999999999989e-10,0.00419921875
6.211942580486283e-10,0.00419921875
6.226449828953218e-10,0.00419921875
6.238224914476603e-10,0.00419921875
6.249999999999989e-10,0.00419921875
6.26788496021529e-10,0.00419921875
6.282005913279699e-10,0.00419921875
6.291002956639844e-10,0.00419921875
6.299999999999989e-10,0.00419921875
6.311029892572218e-10,0.00419921875
6.32517210654954e-10,0.00419921875
6.337160158308564e-10,0.00419921875
6.349999999999988e-10,0.00419921875
6.366608305828085e-10,0.00419921875
6.380171250671665e-10,0.00419921875
6.399999999999988e-10,0.00419921875
6.414278949709501e-10,0.00419921875
6.431142007283988e-10,0.00419921875
6.440571003641988e-10,0.00419921875
6.449999999999988e-10,0.00419921875
6.466331551522593e-10,0.00419921875
6.482472897420374e-10,0.00419921875
6.491236448710181e-10,0.00419921875
6.499999999999988e-10,0.00419921875
6.512148961529457e-10,0.00419921875
6.526885866223901e-10,0.00419921875
6.539072849124523e-10,0.00419921875
6.549999999999988e-10,0.00419921875
6.566555305465233e-10,0.00419921875
6.580132344216858e-10,0.00419921875
6.599999999999988e-10,0.00419921875
6.613992186605364e-10,0.00419921875
6.632262418198513e-10,0.00419921875
6.641131209099251e-10,0.00419921875
6.649999999999987e-10,0.00419921875
6.665696304658897e-10,0.00419921875
6.681075294231516e-10,0.00419921875
6.690537647115751e-10,0.00419921875
6.699999999999987e-10,0.00419921875
6.713838870280985e-10,0.00419921875
6.727167899803954e-10,0.00419921875
6.739814220583469e-10,0.00419921875
6.749999999999987e-10,0.00419921875
6.764372590882655e-10,0.00419921875
6.778383164565337e-10,0.00419921875
6.789191582282661e-10,0.00419921875
6.799999999999987e-10,0.00419921875
6.81524723466996e-10,0.00419921875
6.831265810323545e-10,0.00419921875
6.840632905161766e-10,0.00419921875
6.849999999999987e-10,0.00419921875
6.863312933118232e-10,0.00419921875
6.878277078755954e-10,0.00419921875
6.890147889140721e-10,0.00419921875
6.899999999999987e-10,0.00419921875
