Trace
Swept SA
A.14.04,N9030A
550 B25 B40 B85 DP2 EP1 FS1 FS2 FSA LFE LNP MPB NFE NUL P50 PFR RTL ,01
Segment,0
Number of Points,1001
Sweep Time,0.5
Start Frequency,2000000000
Stop Frequency,18000000000
Average Count,0
Average Type,Power(RMS)
RBW,3000000
RBW Filter,Gaussian
RBW Filter BW,3dB
VBW,300000
Sweep Type,Swept
X Axis Scale,Lin
PreAmp State,Off
PreAmp Band,Low
Trigger Source,Free
Trigger Level,1.2
Trigger Slope,Positive
Trigger Delay,0
Phase Noise Optimization,Fast
Swept If Gain,High
FFT If Gain,Autorange
RF Coupling,DC
FFT Width,411900
Ext Ref,10000000
Input,RF
RF Calibrator,Off
Attenuation,0
Ref Level Offset,0
External Gain,0
Trace Type,Average
Detector,Average
Trace Math,Off
Trace Math Oper1,Trace5
Trace Math Oper2,Trace6
Trace Math Offset,0
Trace Name,Trace1
X Axis Units,Hz
Y Axis Units,dBm
DATA
2000000000,-100.63631526146
2016000000,-100.527725491958
2032000000,-100.422131195129
2048000000,-100.310033521001
2064000000,-100.281084226356
2080000000,-100.300433658679
2096000000,-100.322893219728
2112000000,-100.332357438344
2128000000,-100.277292700051
2144000000,-100.201376990097
2160000000,-100.130126768315
2176000000,-100.069298327897
2192000000,-99.9843426623383
2208000000,-99.9612027148697
2224000000,-99.9490586825436
2240000000,-99.9398391762324
2256000000,-99.9172578944193
2272000000,-99.8700167362186
2288000000,-99.8136139881142
2304000000,-99.6910050257217
2320000000,-99.5531931284204
2336000000,-99.4413933551464
2352000000,-99.3668308937877
2368000000,-99.360461612575
2384000000,-99.3327565821889
2400000000,-99.311958076033
2416000000,-99.2870927348153
2432000000,-99.2711025896208
2448000000,-99.2222522700258
2464000000,-99.145565266319
2480000000,-99.0863653052521
2496000000,-99.0198268412041
2512000000,-99.0037864758941
2528000000,-98.9882753487941
2544000000,-99.0507760535894
2560000000,-99.0774917178258
2576000000,-99.0645051345737
2592000000,-98.9630086558056
2608000000,-98.8776248522268
2624000000,-98.7634154567068
2640000000,-98.7127385509986
2656000000,-98.6941712532024
2672000000,-98.7667848916446
2688000000,-98.8782915950365
2704000000,-99.0059532118287
2720000000,-99.1010964324055
2736000000,-99.1448413350024
2752000000,-99.1180469388493
2768000000,-99.0937218831967
2784000000,-99.0989540924326
2800000000,-99.1742175772986
2816000000,-99.2442785910245
2832000000,-99.3372861464766
2848000000,-99.4363625014277
2864000000,-99.4749237052677
2880000000,-99.411086274558
2896000000,-99.2971039982552
2912000000,-99.1472944271808
2928000000,-99.0228227757176
2944000000,-98.9286663363618
2960000000,-98.7841791814635
2976000000,-98.6782585646481
2992000000,-98.5945374075978
3008000000,-98.5102755281922
3024000000,-98.4294625242825
3040000000,-98.3500898035211
3056000000,-98.2397004297903
3072000000,-98.1572473017238
3088000000,-98.084625060193
3104000000,-98.0379209689978
3120000000,-98.0407505395571
3136000000,-98.0308299884589
3152000000,-98.0284578622693
3168000000,-98.0087264527632
3184000000,-97.9923396782263
3200000000,-97.9570617938507
3216000000,-97.9491135055518
3232000000,-97.9228627310609
3248000000,-97.9166272659134
3264000000,-97.9408584369258
3280000000,-98.0397757514455
3296000000,-98.1516742122276
3312000000,-98.2885166189895
3328000000,-98.4451852703942
3344000000,-98.5844197324531
3360000000,-98.6802587649297
3376000000,-98.7942492395719
3392000000,-98.8918811248277
3408000000,-98.9690870118841
3424000000,-99.0521464539781
3440000000,-99.1196447174412
3456000000,-99.1162320616016
3472000000,-99.1422065507265
3488000000,-99.1064714549827
3504000000,-99.0716422513913
3520000000,-98.9109914222495
3536000000,-98.7871511463025
3552000000,-98.6073358672199
3568000000,-98.2929312857254
3584000000,-98.0522943896618
3600000000,-90.841791054314
3616000000,-92.824127930113
3632000000,-94.5778089728812
3648000000,-94.5213856547256
3664000000,-93.2438466912319
3680000000,-91.3416701224654
3696000000,-89.537306798691
3712000000,-88.2544356947646
3728000000,-87.4063190428209
3744000000,-86.6622743691044
3760000000,-86.3212631341923
3776000000,-86.3507708120792
3792000000,-86.7817953221954
3808000000,-87.70343778897
3824000000,-89.2309820202612
3840000000,-91.9834650580995
3856000000,-94.3801804304813
3872000000,-94.872399510063
3888000000,-95.150580909571
3904000000,-95.2475744541972
3920000000,-95.2271745791197
3936000000,-94.961629208291
3952000000,-94.5295449838197
3968000000,-92.57387035547
3984000000,-90.1308802920253
4000000000,-88.7878308677553
4016000000,-87.8280942647669
4032000000,-87.5360020503135
4048000000,-87.6289902895964
4064000000,-88.2124595585174
4080000000,-89.3020469287743
4096000000,-91.1889624677463
4112000000,-94.2188477993925
4128000000,-95.5158282455875
4144000000,-95.8103858137717
4160000000,-96.0237348027111
4176000000,-96.0691165627139
4192000000,-96.0319291243031
4208000000,-95.8736949479135
4224000000,-95.6251557956438
4240000000,-95.3586245164632
4256000000,-94.2350655480075
4272000000,-92.3252321708789
4288000000,-91.3654063297448
4304000000,-91.2362872985779
4320000000,-91.0690895836218
4336000000,-91.5092977520164
4352000000,-92.3767427064453
4368000000,-93.8624453985387
4384000000,-95.290682663218
4400000000,-95.798322122474
4416000000,-95.8400641397609
4432000000,-95.8222113101604
4448000000,-95.7602154615298
4464000000,-95.6233636305629
4480000000,-95.5013638753962
4496000000,-95.3352342742402
4512000000,-95.1786561892331
4528000000,-94.9500743749812
4544000000,-94.5312388673207
4560000000,-93.1331817610982
4576000000,-92.6444659319386
4592000000,-92.4869780310404
4608000000,-92.5326668223908
4624000000,-92.7254600236521
4640000000,-93.333165760237
4656000000,-93.4300574959702
4672000000,-93.3248468395153
4688000000,-93.1270118050938
4704000000,-94.1591969904712
4720000000,-94.6401303611642
4736000000,-94.6806900131995
4752000000,-94.7851863466127
4768000000,-94.7939682434168
4784000000,-94.7960585466939
4800000000,-94.1819822130241
4816000000,-92.9921913395931
4832000000,-91.8010678412557
4848000000,-92.3777578245533
4864000000,-92.1009632763624
4880000000,-91.4379480843453
4896000000,-90.6972618566171
4912000000,-90.3728461648588
4928000000,-90.4103913071508
4944000000,-91.0231916343234
4960000000,-92.3988300698382
4976000000,-94.4324678068569
4992000000,-94.7615129046616
5008000000,-95.0534355929345
5024000000,-95.3697343361994
5040000000,-95.6263568452526
5056000000,-95.8011864091664
5072000000,-95.8530554228132
5088000000,-95.7740094641018
5104000000,-95.5745444711778
5120000000,-95.2941865683933
5136000000,-94.2086162465626
5152000000,-92.2637456233118
5168000000,-91.1155040344268
5184000000,-90.5476950365724
5200000000,-90.624872709041
5216000000,-91.3439846186954
5232000000,-93.1649710323849
5248000000,-94.8368904250142
5264000000,-95.2771458677254
5280000000,-95.7104765133628
5296000000,-96.0752559609557
5312000000,-96.3660360801132
5328000000,-96.527539496839
5344000000,-96.5559583493854
5360000000,-96.4447423264254
5376000000,-96.2200336962041
5392000000,-95.8897222356858
5408000000,-95.5214250630791
5424000000,-94.8155720227672
5440000000,-93.0421078967846
5456000000,-91.8904782768888
5472000000,-91.5510535893882
5488000000,-91.9153792433398
5504000000,-93.7657626171654
5520000000,-95.304299025489
5536000000,-95.7830462079918
5552000000,-96.1308451587011
5568000000,-96.3869980509275
5584000000,-96.5497866536273
5600000000,-96.5563262514807
5616000000,-96.3977763386025
5632000000,-96.1524150051277
5648000000,-95.8652612612009
5664000000,-95.5202745283717
5680000000,-95.0506130883152
5696000000,-92.9688461420307
5712000000,-91.5765990924137
5728000000,-90.947769469723
5744000000,-90.9179536132085
5760000000,-91.7343269758911
5776000000,-92.9574448114681
5792000000,-95.0299085158038
5808000000,-95.6545011463139
5824000000,-95.8416700570751
5840000000,-95.9754444839794
5856000000,-96.0722885259342
5872000000,-96.0209805499662
5888000000,-95.9292769506285
5904000000,-95.7416659461459
5920000000,-95.5259044276221
5936000000,-95.2188465327928
5952000000,-94.7913620273484
5968000000,-93.4553094750344
5984000000,-91.8843621658055
6000000000,-88.4440863507079
6016000000,-90.8440375058668
6032000000,-91.8922603738779
6048000000,-93.3671870531604
6064000000,-95.0732134648145
6080000000,-95.6806212822623
6096000000,-95.9233035363046
6112000000,-96.0920189560412
6128000000,-96.2047755824677
6144000000,-96.2714485398326
6160000000,-96.3071213831997
6176000000,-96.2942120063257
6192000000,-96.1675971334664
6208000000,-96.0298929172189
6224000000,-95.966567242417
6240000000,-95.8230202118147
6256000000,-95.6978992002053
6272000000,-95.498587325836
6288000000,-95.0732313433542
6304000000,-94.7772858715263
6320000000,-94.7441237215077
6336000000,-94.9391358975896
6352000000,-95.464863677925
6368000000,-95.5234764499018
6384000000,-95.6276331435915
6400000000,-95.6404042333675
6416000000,-95.8082667546317
6432000000,-95.9435296040116
6448000000,-96.0022390445523
6464000000,-96.1691525977515
6480000000,-96.2641210878836
6496000000,-96.290915674761
6512000000,-96.326385155697
6528000000,-96.4165834093832
6544000000,-96.5217820583496
6560000000,-96.5385611713884
6576000000,-96.5265509780168
6592000000,-96.5520778106359
6608000000,-96.5280248195848
6624000000,-96.474084004289
6640000000,-96.4659452541384
6656000000,-96.4917271015554
6672000000,-96.5814479858353
6688000000,-96.6663422752138
6704000000,-96.7805317988383
6720000000,-96.9143609636983
6736000000,-97.008473349291
6752000000,-97.0282875372154
6768000000,-96.9486404492875
6784000000,-96.8618664642791
6800000000,-96.7583976677008
6816000000,-96.4966985925953
6832000000,-96.2773369577176
6848000000,-96.0882005072878
6864000000,-95.8558144500415
6880000000,-95.6873043556027
6896000000,-95.5556435857644
6912000000,-95.549915199156
6928000000,-95.6067045784154
6944000000,-95.7263895651393
6960000000,-95.8941000851089
6976000000,-96.0948659496678
6992000000,-96.2513516569393
7008000000,-96.3690677059991
7024000000,-96.4053529856319
7040000000,-96.3730985189339
7056000000,-96.2806932847917
7072000000,-96.0719398668892
7088000000,-95.8489288361195
7104000000,-95.6132300198377
7120000000,-95.4082554858576
7136000000,-95.2040747771543
7152000000,-95.099651231988
7168000000,-95.1193045439662
7184000000,-95.1953189393459
7200000000,-95.3259020425221
7216000000,-95.5673822451951
7232000000,-95.811600346571
7248000000,-96.0624080336358
7264000000,-96.271238035301
7280000000,-96.3790795628417
7296000000,-96.4739975060521
7312000000,-96.4574589687611
7328000000,-96.3711102525596
7344000000,-96.2292098329245
7360000000,-96.0744916463367
7376000000,-95.9012919191969
7392000000,-95.7169312685301
7408000000,-95.5977332822661
7424000000,-95.5528813411078
7440000000,-95.5675282769918
7456000000,-95.6334911696963
7472000000,-95.7701601031886
7488000000,-95.914792115195
7504000000,-96.0781238884157
7520000000,-96.2081433522062
7536000000,-96.331338884986
7552000000,-96.4558505944165
7568000000,-96.5261414763191
7584000000,-96.5484475779215
7600000000,-96.5061888244108
7616000000,-96.4205423206517
7632000000,-96.2910560611466
7648000000,-96.1725147693147
7664000000,-96.0453492738378
7680000000,-95.9295308020288
7696000000,-95.8618072082011
7712000000,-95.8078330600334
7728000000,-95.8276584176946
7744000000,-95.8950912164077
7760000000,-95.976315576225
7776000000,-96.0873373752345
7792000000,-96.2203024670099
7808000000,-67.3126537718627
7824000000,-95.9354590840289
7840000000,-96.4665833533236
7856000000,-96.4736992990945
7872000000,-96.4202202163618
7888000000,-96.3141565906729
7904000000,-96.1501294161962
7920000000,-95.9603775793328
7936000000,-95.773858720506
7952000000,-95.6195967069191
7968000000,-95.4542251705223
7984000000,-95.3618910352482
8000000000,-95.2934957369695
8016000000,-95.2787240336393
8032000000,-95.3259604772009
8048000000,-95.384965277378
8064000000,-95.4508567667482
8080000000,-95.5799550275836
8096000000,-95.6638355005921
8112000000,-95.7775715701237
8128000000,-95.8312443533578
8144000000,-95.8114741069142
8160000000,-95.7787857080864
8176000000,-95.6899299514538
8192000000,-95.5398871525818
8208000000,-95.3853621929115
8224000000,-95.2397304037858
8240000000,-95.1148000087916
8256000000,-95.0341681543264
8272000000,-95.0132332742022
8288000000,-94.9917320507658
8304000000,-95.0529789327898
8320000000,-95.120924468037
8336000000,-95.1911539186205
8352000000,-95.3140099253243
8368000000,-95.5140265533282
8384000000,-95.6918189995444
8400000000,-95.9304086434403
8416000000,-96.0756678216398
8432000000,-96.1396131684469
8448000000,-96.1311783862672
8464000000,-96.0744890161971
8480000000,-95.9877468804551
8496000000,-95.8849034901215
8512000000,-95.7551996224805
8528000000,-95.6040196785279
8544000000,-95.5058244126841
8560000000,-95.4735695461324
8576000000,-95.4329466659628
8592000000,-95.4814766881604
8608000000,-95.5817159392118
8624000000,-95.7059944960409
8640000000,-95.8458117950311
8656000000,-96.0111715003147
8672000000,-96.1177483815045
8688000000,-96.2228559726608
8704000000,-96.2667632331084
8720000000,-96.2439582587458
8736000000,-96.1750573127208
8752000000,-96.0935246282587
8768000000,-95.8992850364675
8784000000,-95.7305571994097
8800000000,-95.5385036198013
8816000000,-95.375261538481
8832000000,-95.2234679632204
8848000000,-94.9971191691368
8864000000,-95.0003912619981
8880000000,-94.9928433449486
8896000000,-95.1912733026499
8912000000,-95.3536528642429
8928000000,-95.5245317522648
8944000000,-95.6694196197871
8960000000,-95.7642531053197
8976000000,-95.8159966500075
8992000000,-95.8496663681433
9008000000,-95.8098253687555
9024000000,-95.713462104117
9040000000,-95.5959150413879
9056000000,-95.4415238247383
9072000000,-95.2872383240824
9088000000,-95.1421758144865
9104000000,-95.0389478099522
9120000000,-94.9837953837678
9136000000,-94.9809549637812
9152000000,-95.0268424866146
9168000000,-95.0873613913038
9184000000,-95.2155034258529
9200000000,-95.3561683532309
9216000000,-95.5009693040933
9232000000,-95.6322071956012
9248000000,-95.7730885387319
9264000000,-95.8436171193947
9280000000,-95.8824515252768
9296000000,-95.8758534324686
9312000000,-95.8022464806108
9328000000,-95.7021044262707
9344000000,-95.5531225470051
9360000000,-95.4440188466317
9376000000,-95.3547934661976
9392000000,-95.2810004163007
9408000000,-95.2352529058581
9424000000,-95.2436456177736
9440000000,-95.2533463341637
9456000000,-95.339035175488
9472000000,-95.4636607763969
9488000000,-95.5228560207109
9504000000,-95.5734409949931
9520000000,-95.6349782579572
9536000000,-95.6855453528406
9552000000,-95.7199781015854
9568000000,-95.7321583522506
9584000000,-95.7291928190126
9600000000,-95.6841586580489
9616000000,-95.5765858044962
9632000000,-95.4672805528358
9648000000,-95.3421620257883
9664000000,-95.2449326960094
9680000000,-95.1580097388194
9696000000,-95.1021006251879
9712000000,-95.037997929343
9728000000,-95.0085427711893
9744000000,-94.9938225006787
9760000000,-95.0071111290171
9776000000,-95.0407286115143
9792000000,-95.1036754792928
9808000000,-95.229016116455
9824000000,-95.3603492632254
9840000000,-95.4585335366648
9856000000,-95.5154073171303
9872000000,-95.5040190172531
9888000000,-95.4227992720924
9904000000,-95.3137783401477
9920000000,-95.2013844874372
9936000000,-95.0904374376843
9952000000,-94.9660410799817
9968000000,-94.8831408154995
9984000000,-94.822958403272
10000000000,-94.821277245353
10016000000,-94.8493700855887
10032000000,-94.917381563903
10048000000,-94.9977198637454
10064000000,-95.1231322046206
10080000000,-95.2792048788859
10096000000,-95.4552977532004
10112000000,-95.6027412903902
10128000000,-95.7016560259073
10144000000,-95.7423216501567
10160000000,-95.7809606067765
10176000000,-95.7778528107518
10192000000,-95.6665985747014
10208000000,-95.5504290944107
10224000000,-95.4217686552451
10240000000,-95.3078350924722
10256000000,-95.2003819226777
10272000000,-95.1159796117307
10288000000,-95.0855298754566
10304000000,-95.0903179882135
10320000000,-95.1038971162924
10336000000,-95.1735560707851
10352000000,-95.2742375882842
10368000000,-95.3563391421642
10384000000,-95.4446067161889
10400000000,-95.5079643180167
10416000000,-95.5384491064266
10432000000,-95.5401602714266
10448000000,-95.5220520934962
10464000000,-95.414931326725
10480000000,-95.2434997039554
10496000000,-95.0417981949197
10512000000,-94.8760946526703
10528000000,-94.7160190816776
10544000000,-94.6130454782961
10560000000,-94.5879340005794
10576000000,-94.6026220561597
10592000000,-94.6400879182438
10608000000,-94.7213434968053
10624000000,-94.8040739404943
10640000000,-94.9014892576547
10656000000,-94.9602901275596
10672000000,-94.9952589150864
10688000000,-95.0169080389541
10704000000,-95.0226996891713
10720000000,-95.0042802567502
10736000000,-94.9162624409538
10752000000,-94.7685893898564
10768000000,-94.5860082763724
10784000000,-94.3824089849421
10800000000,-94.2785109618412
10816000000,-94.2454034820237
10832000000,-94.2683286447841
10848000000,-94.3092454734369
10864000000,-94.3839140781655
10880000000,-94.4832217726199
10896000000,-94.6024246234794
10912000000,-94.7359629745266
10928000000,-94.8873980621406
10944000000,-95.0396739203357
10960000000,-95.1563132882445
10976000000,-95.2426056611792
10992000000,-95.2573358568915
11008000000,-95.2430720931879
11024000000,-95.218251183663
11040000000,-95.143815411503
11056000000,-95.0825071834942
11072000000,-94.984651785808
11088000000,-94.9173923461136
11104000000,-94.8499446738461
11120000000,-94.8161803139767
11136000000,-94.8050095929586
11152000000,-94.8202724294929
11168000000,-94.8625251546005
11184000000,-94.9114958118285
11200000000,-94.9447170132203
11216000000,-95.0148662535519
11232000000,-95.0843688266413
11248000000,-95.1820376013223
11264000000,-95.2409228928662
11280000000,-95.2474145882968
11296000000,-95.2344013366123
11312000000,-95.1569349424484
11328000000,-95.0516940526315
11344000000,-94.9253217183489
11360000000,-94.7659405080107
11376000000,-94.6327983185719
11392000000,-94.5535242352124
11408000000,-94.5182030046819
11424000000,-94.4955629925686
11440000000,-94.5260406180129
11456000000,-94.6159795172949
11472000000,-94.7050236555369
11488000000,-94.8406584664641
11504000000,-94.9648499040008
11520000000,-95.0941061614346
11536000000,-95.1898208615961
11552000000,-95.248675892432
11568000000,-95.2663209630119
11584000000,-95.2100038949423
11600000000,-95.1418777525208
11616000000,-95.0260623279677
11632000000,-94.9435194301366
11648000000,-94.8453676970639
11664000000,-94.765594759412
11680000000,-94.7168085250963
11696000000,-94.6973165516059
11712000000,-94.7111684114685
11728000000,-94.779145292952
11744000000,-94.8231115344173
11760000000,-94.9031339635376
11776000000,-95.0022662180404
11792000000,-95.0923753994593
11808000000,-95.1804332099703
11824000000,-95.2477498818993
11840000000,-95.2338953012104
11856000000,-95.1800230513847
11872000000,-95.1238841974382
11888000000,-95.0330301048432
11904000000,-94.9143799374899
11920000000,-94.8218823037595
11936000000,-94.7101804442116
11952000000,-94.602758600424
11968000000,-94.5567418393585
11984000000,-94.600250347465
12000000000,-94.6802880752149
12016000000,-94.802927208706
12032000000,-94.9048562328991
12048000000,-95.0379448057664
12064000000,-95.1612355253491
12080000000,-95.279922395666
12096000000,-95.3665977586011
12112000000,-95.4060572628437
12128000000,-95.4420521185101
12144000000,-95.4040586860894
12160000000,-95.3244864104789
12176000000,-95.2387905772865
12192000000,-95.1280767561156
12208000000,-95.0161654593546
12224000000,-94.9030815263507
12240000000,-94.8133252178613
12256000000,-94.7589073504827
12272000000,-94.7357041144529
12288000000,-94.7597866670742
12304000000,-94.8401671768848
12320000000,-94.9190057145921
12336000000,-94.9890715963913
12352000000,-95.0915189654241
12368000000,-95.1441763657875
12384000000,-95.1955148613238
12400000000,-95.2407489425458
12416000000,-95.1748748646462
12432000000,-95.0712086292966
12448000000,-94.9509349069061
12464000000,-94.8144999996471
12480000000,-94.6363454406725
12496000000,-94.4857557585621
12512000000,-94.3506428615543
